Freq.,Vout.,Phase.
Step,Information:,Run=1,Run:,1/100
5.00000000000000e+000,-2.79629791551059e+000,-1.52304231584968e+002
6.29462705897084e+000,2.44570230088636e+000,-1.63722404115726e+002
7.92446596230557e+000,7.34771543245184e+000,-1.77700397866912e+002
9.97631157484440e+000,1.17887355448395e+001,1.65976564068167e+002
1.25594321575479e+001,1.56526451009900e+001,1.47842175375384e+002
1.58113883008419e+001,1.88571510444536e+001,1.28748895534571e+002
1.99053585276749e+001,2.13803904403815e+001,1.09729620712891e+002
2.50593616813636e+001,2.32684981998080e+001,9.17621423262339e+001
3.15478672240097e+001,2.46186283579070e+001,7.55596340775877e+001
3.97164117362141e+001,2.55489446656017e+001,6.14871104827995e+001
5.00000000000000e+001,2.61722187191472e+001,4.96041452530998e+001
6.29462705897084e+001,2.65814606474965e+001,3.97675300342943e+001
7.92446596230557e+001,2.68464717879907e+001,3.17319125840139e+001
9.97631157484440e+001,2.70164980962678e+001,2.52210518572569e+001
1.25594321575479e+002,2.71249129104671e+001,1.99684588918273e+001
1.58113883008419e+002,2.71937506957673e+001,1.57360469828002e+001
1.99053585276749e+002,2.72373148614452e+001,1.23197581560929e+001
2.50593616813636e+002,2.72647848524340e+001,9.54850741682940e+000
3.15478672240097e+002,2.72820002224440e+001,7.28020235450003e+000
3.97164117362141e+002,2.72926409769718e+001,5.39681858822758e+000
5.00000000000000e+002,2.72989896149449e+001,3.79946419838799e+000
6.29462705897084e+002,2.73024108873887e+001,2.40380263983295e+000
7.92446596230557e+002,2.73036413048075e+001,1.13592046233571e+000
9.97631157484441e+002,2.73029463240360e+001,-7.14059255048553e-002
1.25594321575479e+003,2.73001775289007e+001,-1.28214388064447e+000
1.58113883008419e+003,2.72947420379195e+001,-2.56024958075747e+000
1.99053585276749e+003,2.72854788300561e+001,-3.97281862377648e+000
2.50593616813636e+003,2.72704191261589e+001,-5.59318739270324e+000
3.15478672240097e+003,2.72463887897826e+001,-7.50392908526988e+000
3.97164117362141e+003,2.72083906006522e+001,-9.79949236243402e+000
5.00000000000001e+003,2.71486896881491e+001,-1.25878714631454e+001
6.29462705897085e+003,2.70555361673670e+001,-1.59900906744628e+001
7.92446596230558e+003,2.69115404692738e+001,-2.01354069441926e+001
9.97631157484441e+003,2.66919489321108e+001,-2.51492424402116e+001
1.25594321575479e+004,2.63635320194464e+001,-3.11309749090816e+001
1.58113883008419e+004,2.58854182739886e+001,-3.81220380316753e+001
1.99053585276749e+004,2.52134204219314e+001,-4.60735152679833e+001
2.50593616813637e+004,2.43080881133670e+001,-5.48336494118892e+001
3.15478672240097e+004,2.31434893197394e+001,-6.41760533595025e+001
3.97164117362142e+004,2.17111149182614e+001,-7.38654464341649e+001
5.00000000000001e+004,2.00154211476419e+001,-8.37235220813549e+001
6.29462705897085e+004,1.80637565098324e+001,-9.36510588294084e+001
7.92446596230558e+004,1.58576494940179e+001,-1.03593998089420e+002
9.97631157484442e+004,1.33911661660158e+001,-1.13479579244046e+002
1.25594321575479e+005,1.06573581933424e+001,-1.23166482090651e+002
1.58113883008419e+005,7.65866355791590e+000,-1.32444925271106e+002
1.99053585276749e+005,4.41414555904119e+000,-1.41090391541447e+002
2.50593616813637e+005,9.58627127032593e-001,-1.48935869702925e+002
3.15478672240097e+005,-2.66498184588174e+000,-1.55917761604252e+002
3.97164117362142e+005,-6.41469261175552e+000,-1.62078440594456e+002
5.00000000000000e+005,-1.02554906728380e+001,-1.67540049949942e+002
Step,Information:,Run=2,Run:,2/100
5.00000000000000e+000,-4.31121765936816e+000,-1.50303615162651e+002
6.29462705897084e+000,9.89872893884320e-001,-1.61104237254007e+002
7.92446596230557e+000,5.97713683076983e+000,-1.74484626687757e+002
9.97631157484440e+000,1.05313484382879e+001,1.69710500124145e+002
1.25594321575479e+001,1.45329518267986e+001,1.51940174526735e+002
1.58113883008419e+001,1.78893694836207e+001,1.32993031985384e+002
1.99053585276749e+001,2.05636057335100e+001,1.13880431717715e+002
2.50593616813636e+001,2.25871626285176e+001,9.56139696009724e+001
3.15478672240097e+001,2.40480976517468e+001,7.89789368187224e+001
3.97164117362141e+001,2.50624313103570e+001,6.44187990512416e+001
5.00000000000000e+001,2.57458161147540e+001,5.20540939329590e+001
6.29462705897084e+001,2.61962990519671e+001,4.17779290400127e+001
7.92446596230557e+001,2.64887967700921e+001,3.33606608193131e+001
9.97631157484440e+001,2.66767894647813e+001,2.65284936991003e+001
1.25594321575479e+002,2.67967975893932e+001,2.10103936933539e+001
1.58113883008419e+002,2.68730521132243e+001,1.65608327270965e+001
1.99053585276749e+002,2.69213316081144e+001,1.29676800500089e+001
2.50593616813636e+002,2.69517822377459e+001,1.00522261239119e+001
3.15478672240097e+002,2.69708663277746e+001,7.66561323493103e+000
3.97164117362141e+002,2.69826589842139e+001,5.68398054753425e+000
5.00000000000000e+002,2.69896880497618e+001,4.00344033061003e+000
6.29462705897084e+002,2.69934638601954e+001,2.53534968168978e+000
7.92446596230557e+002,2.69947990157901e+001,1.20200948342422e+000
9.97631157484441e+002,2.69939815963227e+001,-6.72352458725339e-002
1.25594321575479e+003,2.69908372382323e+001,-1.33958484538165e+000
1.58113883008419e+003,2.69846933752600e+001,-2.68217062761927e+000
1.99053585276749e+003,2.69742396039385e+001,-4.16532305217869e+000
2.50593616813636e+003,2.69572589579538e+001,-5.86574990830740e+000
3.15478672240097e+003,2.69301844835211e+001,-7.86952984816220e+000
3.97164117362141e+003,2.68874155707645e+001,-1.02745931619634e+001
5.00000000000001e+003,2.68203181343329e+001,-1.31919423257263e+001
6.29462705897085e+003,2.67158574047807e+001,-1.67441807299466e+001
7.92446596230558e+003,2.65549265130493e+001,-2.10589904915935e+001
9.97631157484441e+003,2.63107255101488e+001,-2.62544445721811e+001
1.25594321575479e+004,2.59480762220201e+001,-3.24137881097742e+001
1.58113883008419e+004,2.54251530040075e+001,-3.95520353095791e+001
1.99053585276749e+004,2.46990218088545e+001,-4.75868930689772e+001
2.50593616813637e+004,2.37344811876280e+001,-5.63365926152155e+001
3.15478672240097e+004,2.25122180123842e+001,-6.55616471595678e+001
3.97164117362142e+004,2.10306118033909e+001,-7.50378074574640e+001
5.00000000000001e+004,1.92990801794082e+001,-8.46171047705526e+001
6.29462705897085e+004,1.73271050412091e+001,-9.42383066441884e+001
7.92446596230558e+004,1.51158650893125e+001,-1.03883589207952e+002
9.97631157484442e+004,1.26572333563137e+001,-1.13510303919492e+002
1.25594321575479e+005,9.94066649738581e+000,-1.22998510863486e+002
1.58113883008419e+005,6.96414867300582e+000,-1.32147817343075e+002
1.99053585276749e+005,3.74240755405261e+000,-1.40729392442947e+002
2.50593616813637e+005,3.07110362866753e-001,-1.48561277973189e+002
3.15478672240097e+005,-3.30033659685555e+000,-1.55561060492858e+002
3.97164117362142e+005,-7.03807416150739e+000,-1.61754513501580e+002
5.00000000000000e+005,-1.08704605386515e+001,-1.67252101881881e+002
Step,Information:,Run=3,Run:,3/100
5.00000000000000e+000,-2.71335464346684e+000,-1.52516911288488e+002
6.29462705897084e+000,2.52131051728509e+000,-1.64026620550353e+002
7.92446596230557e+000,7.41242592995587e+000,-1.78092047314637e+002
9.97631157484440e+000,1.18387492580857e+001,1.65508984324177e+002
1.25594321575479e+001,1.56845848641631e+001,1.47319830470784e+002
1.58113883008419e+001,1.88689696898707e+001,1.28201522805681e+002
1.99053585276749e+001,2.13720528226859e+001,1.09190148256584e+002
2.50593616813636e+001,2.32419627004643e+001,9.12592871373394e+001
3.15478672240097e+001,2.45771311798856e+001,7.51125618516597e+001
3.97164117362141e+001,2.54960613430815e+001,6.11043760138656e+001
5.00000000000000e+001,2.61111686132197e+001,4.92859517976977e+001
6.29462705897084e+001,2.65147983973275e+001,3.95090610220574e+001
7.92446596230557e+001,2.67760658628380e+001,3.15261702201978e+001
9.97631157484440e+001,2.69436449250405e+001,2.50607165046946e+001
1.25594321575479e+002,2.70504823560777e+001,1.98468988275340e+001
1.58113883008419e+002,2.71183147251494e+001,1.56477721291700e+001
1.99053585276749e+002,2.71612459328025e+001,1.22605693017296e+001
2.50593616813636e+002,2.71883259154607e+001,9.51550641590301e+000
3.15478672240097e+002,2.72053129118723e+001,7.27175889078199e+000
3.97164117362141e+002,2.72158387804144e+001,5.41254487475783e+000
5.00000000000000e+002,2.72221616708873e+001,3.84022453187550e+000
6.29462705897084e+002,2.72256409306173e+001,2.47177258321440e+000
7.92446596230557e+002,2.72270255841848e+001,1.23470510872127e+000
9.97631157484441e+002,2.72266142190310e+001,6.34128289960214e-002
1.25594321575479e+003,2.72243191712271e+001,-1.10419970201343e+000
1.58113883008419e+003,2.72196486253440e+001,-2.32988254765004e+000
1.99053585276749e+003,2.72116036825325e+001,-3.67811757975029e+000
2.50593616813636e+003,2.71984710627567e+001,-5.21916638545168e+000
3.15478672240097e+003,2.71774740555010e+001,-7.03206873157673e+000
3.97164117362141e+003,2.71442244611066e+001,-9.20741061168403e+000
5.00000000000001e+003,2.70919007684877e+001,-1.18493804948483e+001
6.29462705897085e+003,2.70100773288649e+001,-1.50761094072103e+001
7.92446596230558e+003,2.68831819099649e+001,-1.90164858303909e+001
9.97631157484441e+003,2.66887344017664e+001,-2.38006833184991e+001
1.25594321575479e+004,2.63959080634340e+001,-2.95412623926519e+001
1.58113883008419e+004,2.59655571172199e+001,-3.63037487444467e+001
1.99053585276749e+004,2.53532926287719e+001,-4.40725715142224e+001
2.50593616813637e+004,2.45164641521045e+001,-5.27295843330110e+001
3.15478672240097e+004,2.34231628127863e+001,-6.20679065249530e+001
3.97164117362142e+004,2.20581235398620e+001,-7.18474671742664e+001
5.00000000000001e+004,2.04208571646420e+001,-8.18638807901225e+001
6.29462705897085e+004,1.85169001966180e+001,-9.19843143680002e+001
7.92446596230558e+004,1.63485914309840e+001,-1.02127111504355e+002
9.97631157484442e+004,1.39119890675905e+001,-1.12203776871496e+002
1.25594321575479e+005,1.12020491409433e+001,-1.22067483164466e+002
1.58113883008419e+005,8.22245327587313e+000,-1.31508092484602e+002
1.99053585276749e+005,4.99293375623053e+000,-1.40301412667260e+002
2.50593616813637e+005,1.54877821567639e+000,-1.48279708302778e+002
3.15478672240097e+005,-2.06657754207916e+000,-1.55378167076727e+002
3.97164117362142e+005,-5.81052340722242e+000,-1.61638545893421e+002
5.00000000000000e+005,-9.64741949047883e+000,-1.67183442027805e+002
Step,Information:,Run=4,Run:,4/100
5.00000000000000e+000,-3.47367834874022e+000,-1.53328482382016e+002
6.29462705897084e+000,1.75367509507258e+000,-1.64700620533506e+002
7.92446596230557e+000,6.63886532708575e+000,-1.78656414920105e+002
9.97631157484440e+000,1.10599678850928e+001,1.65033051134128e+002
1.25594321575479e+001,1.49010201854160e+001,1.46917235994512e+002
1.58113883008419e+001,1.80811017172608e+001,1.27861719032668e+002
1.99053585276749e+001,2.05805334438202e+001,1.08905089467633e+002
2.50593616813636e+001,2.24475629336348e+001,9.10217442728628e+001
3.15478672240097e+001,2.37806076779344e+001,7.49153546341529e+001
3.97164117362141e+001,2.46980524361590e+001,6.09403686287068e+001
5.00000000000000e+001,2.53121580763520e+001,4.91483242179659e+001
6.29462705897084e+001,2.57151276809101e+001,3.93915179218762e+001
7.92446596230557e+001,2.59759649802318e+001,3.14229933706930e+001
9.97631157484440e+001,2.61432637076287e+001,2.49666898167984e+001
1.25594321575479e+002,2.62499152168898e+001,1.97571569047384e+001
1.58113883008419e+002,2.63176179795881e+001,1.55576079976768e+001
1.99053585276749e+002,2.63604487314804e+001,1.21652184513998e+001
2.50593616813636e+002,2.63874360500645e+001,9.40991113512101e+000
3.15478672240097e+002,2.64043183061625e+001,7.15030878330535e+000
3.97164117362141e+002,2.64147048144405e+001,5.26878447522293e+000
5.00000000000000e+002,2.64208236979014e+001,3.66651556946645e+000
6.29462705897084e+002,2.64239903619849e+001,2.25889588610212e+000
7.92446596230557e+002,2.64248865739991e+001,9.71385232046095e-001
9.97631157484441e+002,2.64237060277588e+001,-2.64252229286066e-001
1.25594321575479e+003,2.64201963739737e+001,-1.51341925870003e+000
1.58113883008419e+003,2.64136069848046e+001,-2.84197168150610e+000
1.99053585276749e+003,2.64025331767468e+001,-4.31939889415333e+000
2.50593616813636e+003,2.63846288135316e+001,-6.02191255302828e+000
3.15478672240097e+003,2.63561390956353e+001,-8.03532443784376e+000
3.97164117362141e+003,2.63111862637987e+001,-1.04573428612432e+001
5.00000000000001e+003,2.62407335121927e+001,-1.33984694873198e+001
6.29462705897085e+003,2.61311850195285e+001,-1.69799605911441e+001
7.92446596230558e+003,2.59627118118547e+001,-2.13263782400873e+001
9.97631157484441e+003,2.57077137138093e+001,-2.65495957680780e+001
1.25594321575479e+004,2.53303855670911e+001,-3.27222221837096e+001
1.58113883008419e+004,2.47889227073403e+001,-3.98438045578761e+001
1.99053585276749e+004,2.40416489330300e+001,-4.78138855348173e+001
2.50593616813637e+004,2.30561862527819e+001,-5.64351900171259e+001
3.15478672240097e+004,2.18172708683405e+001,-6.54617869818676e+001
3.97164117362142e+004,2.03276351138034e+001,-7.46753942568222e+001
5.00000000000001e+004,1.86004697958346e+001,-8.39453095857311e+001
6.29462705897085e+004,1.66479980386991e+001,-9.32363436937128e+001
7.92446596230558e+004,1.44727640568509e+001,-1.02564378957875e+002
9.97631157484442e+004,1.20659069331957e+001,-1.11926528885894e+002
1.25594321575479e+005,9.41316471568932e+000,-1.21241737596726e+002
1.58113883008419e+005,6.50584773718949e+000,-1.30334481456434e+002
1.99053585276749e+005,3.35082263488395e+000,-1.38975338295295e+002
2.50593616813637e+005,-2.65944308247205e-002,-1.46956882412505e+002
3.15478672240097e+005,-3.58811065359742e+000,-1.54159163194615e+002
3.97164117362142e+005,-7.29187924584543e+000,-1.60573081547892e+002
5.00000000000000e+005,-1.11004328640938e+001,-1.66284910501884e+002
Step,Information:,Run=5,Run:,5/100
5.00000000000000e+000,-4.46393490350510e+000,-1.52006970669215e+002
6.29462705897084e+000,7.98201463870257e-001,-1.63079227248308e+002
7.92446596230557e+000,5.73216924785480e+000,-1.76740135425258e+002
9.97631157484440e+000,1.02170559650114e+001,1.67204342201159e+002
1.25594321575479e+001,1.41348772546973e+001,1.49261334829196e+002
1.58113883008419e+001,1.73988887036713e+001,1.30261484399733e+002
1.99053585276749e+001,1.99810562937166e+001,1.11232844193855e+002
2.50593616813636e+001,2.19217573055687e+001,9.31697177183737e+001
3.15478672240097e+001,2.33146993743083e+001,7.68157575117625e+001
3.97164117362141e+001,2.42773436775632e+001,6.25678235629146e+001
5.00000000000000e+001,2.49236744423929e+001,5.05098003550747e+001
6.29462705897084e+001,2.53486998836908e+001,4.05128991843828e+001
7.92446596230557e+001,2.56242146423032e+001,3.23381148916163e+001
9.97631157484440e+001,2.58010999735646e+001,2.57104190380178e+001
1.25594321575479e+002,2.59139384871684e+001,2.03618455969347e+001
1.58113883008419e+002,2.59856061567354e+001,1.60517207532784e+001
1.99053585276749e+002,2.60309706794837e+001,1.25731620930294e+001
2.50593616813636e+002,2.60595812105086e+001,9.75244322273461e+000
3.15478672240097e+002,2.60775158721881e+001,7.44518083699543e+000
3.97164117362141e+002,2.60886068738436e+001,5.53144998273907e+000
5.00000000000000e+002,2.60952326804068e+001,3.91083088988177e+000
6.29462705897084e+002,2.60988173889087e+001,2.49779343616599e+000
7.92446596230557e+002,2.61001326114816e+001,1.21752353510024e+000
9.97631157484441e+002,2.60994620794796e+001,2.15409933796384e-003
1.25594321575479e+003,2.60966627407465e+001,-1.21269486220487e+000
1.58113883008419e+003,2.60911354032882e+001,-2.49117556381105e+000
1.99053585276749e+003,2.60816999525021e+001,-3.90036233822358e+000
2.50593616813636e+003,2.60663522637606e+001,-5.51333207691485e+000
3.15478672240097e+003,2.60418605903165e+001,-7.41210914805850e+000
3.97164117362141e+003,2.60031393414855e+001,-9.69020448052644e+000
5.00000000000001e+003,2.59423248656412e+001,-1.24541063372436e+001
6.29462705897085e+003,2.58474921965481e+001,-1.58224577021306e+001
7.92446596230558e+003,2.57010412834876e+001,-1.99207664111419e+001
9.97631157484441e+003,2.54780279732219e+001,-2.48686340875655e+001
1.25594321575479e+004,2.51451976315859e+001,-3.07567529239728e+001
1.58113883008419e+004,2.46621002753255e+001,-3.76145809625924e+001
1.99053585276749e+004,2.39858188867966e+001,-4.53787518483087e+001
2.50593616813637e+004,2.30793932160723e+001,-5.38834458905849e+001
3.15478672240097e+004,2.19206938558184e+001,-6.28931817225688e+001
3.97164117362142e+004,2.05060335285541e+001,-7.21732093046771e+001
5.00000000000001e+004,1.88451728444740e+001,-8.15590398514915e+001
6.29462705897085e+004,1.69505209895175e+001,-9.09819802464229e+001
7.92446596230558e+004,1.48271627958538e+001,-1.00438264678123e+002
9.97631157484442e+004,1.24691298192285e+001,-1.09923139530245e+002
1.25594321575479e+005,9.86370028052391e+000,-1.19366516273937e+002
1.58113883008419e+005,7.00164235050608e+000,-1.28606280820370e+002
1.99053585276749e+005,3.88775430052848e+000,-1.37418624900159e+002
2.50593616813637e+005,5.45168866920336e-001,-1.45590076788073e+002
3.15478672240097e+005,-2.98892184564704e+000,-1.52986976221002e+002
3.97164117362142e+005,-6.67241883105887e+000,-1.59585918523735e+002
5.00000000000000e+005,-1.04667103199706e+001,-1.65463017698549e+002
Step,Information:,Run=6,Run:,6/100
5.00000000000000e+000,-3.10643479539547e+000,-1.53663729072382e+002
6.29462705897084e+000,2.10813146188881e+000,-1.65187523403125e+002
7.92446596230557e+000,6.97455747740384e+000,-1.79283413890446e+002
9.97631157484440e+000,1.13709138149370e+001,1.64290413512017e+002
1.25594321575479e+001,1.51824217664444e+001,1.46098356838204e+002
1.58113883008419e+001,1.83307138991654e+001,1.27016878169737e+002
1.99053585276749e+001,2.07993932278680e+001,1.08085411996601e+002
2.50593616813636e+001,2.26395380742485e+001,9.02681697750763e+001
3.15478672240097e+001,2.39510685190669e+001,7.42524936181933e+001
3.97164117362141e+001,2.48524797538939e+001,6.03769316149931e+001
5.00000000000000e+001,2.54552591490467e+001,4.86815595414215e+001
6.29462705897084e+001,2.58505273063974e+001,3.90123213441358e+001
7.92446596230557e+001,2.61062634168571e+001,3.11198453032577e+001
9.97631157484440e+001,2.62702426257395e+001,2.47280679398442e+001
1.25594321575479e+002,2.63747602918293e+001,1.95727627745958e+001
1.58113883008419e+002,2.64411044579090e+001,1.54188598956474e+001
1.99053585276749e+002,2.64830791502508e+001,1.20653576418262e+001
2.50593616813636e+002,2.65095364922489e+001,9.34393802678840e+000
3.15478672240097e+002,2.65261038099091e+001,7.11486934028996e+000
3.97164117362141e+002,2.65363237765511e+001,5.26206894702812e+000
5.00000000000000e+002,2.65423890886614e+001,3.68820005622461e+000
6.29462705897084e+002,2.65456037622909e+001,2.31014166400723e+000
7.92446596230557e+002,2.65466599111009e+001,1.05490378459408e+000
9.97631157484441e+002,2.65457855291945e+001,-1.44063482750269e-001
1.25594321575479e+003,2.65427937242784e+001,-1.35026755271069e+000
1.58113883008419e+003,2.65370440440510e+001,-2.62738669658815e+000
1.99053585276749e+003,2.65273090424363e+001,-4.04238814805071e+000
2.50593616813636e+003,2.65115215655961e+001,-5.66858626732021e+000
3.15478672240097e+003,2.64863589708647e+001,-7.58856614172947e+000
3.97164117362141e+003,2.64466007736768e+001,-9.89668694374653e+000
5.00000000000001e+003,2.63841836500048e+001,-1.27004959765457e+001
6.29462705897085e+003,2.62868944443175e+001,-1.61197465253984e+001
7.92446596230558e+003,2.61367371770973e+001,-2.02808127103046e+001
9.97631157484441e+003,2.59082674648090e+001,-2.53034550715013e+001
1.25594321575479e+004,2.55676825979044e+001,-3.12772634606951e+001
1.58113883008419e+004,2.50740723385518e+001,-3.82290148284452e+001
1.99053585276749e+004,2.43843331019078e+001,-4.60915926348898e+001
2.50593616813637e+004,2.34616876844669e+001,-5.46960626180264e+001
3.15478672240097e+004,2.22843750244065e+001,-6.38065674494901e+001
3.97164117362142e+004,2.08487909035332e+001,-7.31911922671663e+001
5.00000000000001e+004,1.91640485042096e+001,-8.26889334640889e+001
