freq,amp,phase
1.00000000000000e+002,-4.56877154983938e-004,-9.58066658365465e-001
1.02329299228075e+002,-4.65302277537133e-004,-9.80382496934823e-001
1.04712854805090e+002,-4.74124332280780e-004,-1.00321810951204e+000
1.07151930523761e+002,-4.83362013345901e-004,-1.02658560114159e+000
1.09647819614318e+002,-4.93034894682439e-004,-1.05049735868423e+000
1.12201845430196e+002,-5.03163471373247e-004,-1.07496605737109e+000
1.14815362149688e+002,-5.13769202964109e-004,-1.10000466750958e+000
1.17489755493953e+002,-5.24874558711547e-004,-1.12562646134434e+000
1.20226443461741e+002,-5.36503065064911e-004,-1.15184502007759e+000
1.23026877081238e+002,-5.48679355273917e-004,-1.17867424105196e+000
1.25892541179417e+002,-5.61429221432375e-004,-1.20612834509953e+000
1.28824955169313e+002,-5.74779668816530e-004,-1.23422188406115e+000
1.31825673855641e+002,-5.88758972868310e-004,-1.26296974847953e+000
1.34896288259165e+002,-6.03396738814088e-004,-1.29238717547088e+000
1.38038426460288e+002,-6.18723964040735e-004,-1.32248975677784e+000
1.41253754462275e+002,-6.34773103459735e-004,-1.35329344700939e+000
1.44543977074593e+002,-6.51578137777732e-004,-1.38481457207036e+000
1.47910838816821e+002,-6.69174645190749e-004,-1.41706983778670e+000
1.51356124843621e+002,-6.87599876136012e-004,-1.45007633872921e+000
1.54881661891248e+002,-7.06892831761439e-004,-1.48385156724086e+000
1.58489319246111e+002,-7.27094345949311e-004,-1.51841342267367e+000
1.62181009735893e+002,-7.48247171151165e-004,-1.55378022083676e+000
1.65958690743756e+002,-7.70396068266876e-004,-1.58997070366403e+000
1.69824365246174e+002,-7.93587900696816e-004,-1.62700404910370e+000
1.73780082874937e+002,-8.17871732672859e-004,-1.66489988123563e+000
1.77827941003892e+002,-8.43298932341538e-004,-1.70367828062177e+000
1.81970085860998e+002,-8.69923279456453e-004,-1.74335979489517e+000
1.86208713666287e+002,-8.97801078166864e-004,-1.78396544959172e+000
1.90546071796324e+002,-9.26991275003734e-004,-1.82551675923146e+000
1.94984459975804e+002,-9.57555582331430e-004,-1.86803573865384e+000
1.99526231496888e+002,-9.89558607525638e-004,-1.91154491461399e+000
2.04173794466953e+002,-1.02306798812278e-003,-1.95606733764401e+000
2.08929613085404e+002,-1.05815453321331e-003,-2.00162659418724e+000
2.13796208950223e+002,-1.09489237133118e-003,-2.04824681900909e+000
2.18776162394955e+002,-1.13335910524418e-003,-2.09595270789337e+000
2.23872113856834e+002,-1.17363597377156e-003,-2.14476953062772e+000
2.29086765276777e+002,-1.21580802113128e-003,-2.19472314428659e+000
2.34422881531992e+002,-1.25996427405163e-003,-2.24584000681704e+000
2.39883291901949e+002,-1.30619792695721e-003,-2.29814719093447e+000
2.45470891568503e+002,-1.35460653574501e-003,-2.35167239833478e+000
2.51188643150958e+002,-1.40529222033185e-003,-2.40644397423009e+000
2.57039578276886e+002,-1.45836187658593e-003,-2.46249092221573e+000
2.63026799189538e+002,-1.51392739777309e-003,-2.51984291947323e+000
2.69153480392691e+002,-1.57210590623446e-003,-2.57853033231940e+000
2.75422870333816e+002,-1.63301999558313e-003,-2.63858423210776e+000
2.81838293126445e+002,-1.69679798382833e-003,-2.70003641148903e+000
2.88403150312660e+002,-1.76357417808812e-003,-2.76291940103949e+000
2.95120922666638e+002,-1.83348915118040e-003,-2.82726648626437e+000
3.01995172040201e+002,-1.90669003080129e-003,-2.89311172498496e+000
3.09029543251358e+002,-1.98333080172948e-003,-2.96048996511631e+000
3.16227766016837e+002,-2.06357262149473e-003,-3.02943686284362e+000
3.23593656929628e+002,-2.14758415043175e-003,-3.09998890120857e+000
3.31131121482590e+002,-2.23554189628895e-003,-3.17218340910839e+000
3.38844156139202e+002,-2.32763057446518e-003,-3.24605858072269e+000
3.46736850452531e+002,-2.42404348400347e-003,-3.32165349537118e+000
3.54813389233575e+002,-2.52498290056398e-003,-3.39900813781525e+000
3.63078054770101e+002,-2.63066048655361e-003,-3.47816341900862e+000
3.71535229097172e+002,-2.74129771961559e-003,-3.55916119730978e+000
3.80189396320560e+002,-2.85712633965374e-003,-3.64204430016227e+000
3.89045144994280e+002,-2.97838881576059e-003,-3.72685654625390e+000
3.98107170553496e+002,-3.10533883330211e-003,-3.81364276816394e+000
4.07380277804112e+002,-3.23824180232954e-003,-3.90244883550670e+000
4.16869383470335e+002,-3.37737538794611e-003,-3.99332167858220e+000
4.26579518801592e+002,-3.52303006358267e-003,-4.08630931254458e+000
4.36515832240165e+002,-3.67550968799060e-003,-4.18146086209455e+000
4.46683592150962e+002,-3.83513210691635e-003,-4.27882658670927e+000
4.57088189614874e+002,-4.00222978031002e-003,-4.37845790641823e+000
4.67735141287197e+002,-4.17715043609764e-003,-4.48040742813543e+000
4.78630092322637e+002,-4.36025775132575e-003,-4.58472897255582e+000
4.89778819368445e+002,-4.55193206186565e-003,-4.69147760163079e+000
5.01187233627271e+002,-4.75257110145706e-003,-4.80070964662896e+000
5.12861383991364e+002,-4.96259077128555e-003,-4.91248273679330e+000
5.24807460249771e+002,-5.18242594089702e-003,-5.02685582860552e+000
5.37031796370251e+002,-5.41253128178923e-003,-5.14388923567002e+000
5.49540873857623e+002,-5.65338213432581e-003,-5.26364465922262e+000
5.62341325190348e+002,-5.90547540944762e-003,-5.38618521928191e+000
5.75439937337155e+002,-6.16933052570654e-003,-5.51157548644419e+000
5.88843655355587e+002,-6.44549038323190e-003,-5.63988151434382e+000
6.02559586074356e+002,-6.73452237505280e-003,-5.77117087277962e+000
6.16595001861481e+002,-7.03701943735796e-003,-5.90551268152359e+000
6.30957344480192e+002,-7.35360113907072e-003,-6.04297764481977e+000
6.45654229034654e+002,-7.68491481228124e-003,-6.18363808658797e+000
6.60693448007594e+002,-8.03163672391641e-003,-6.32756798633543e+000
6.76082975391980e+002,-8.39447328984898e-003,-6.47484301579661e+000
6.91830970918935e+002,-8.77416233207443e-003,-6.62554057630229e+000
7.07945784384136e+002,-9.17147437973245e-003,-6.77973983689840e+000
7.24435960074988e+002,-9.58721401453270e-003,-6.93752177321521e+000
7.41310241300916e+002,-1.00222212612444e-002,-7.09896920710830e+000
7.58577575029182e+002,-1.04773730234760e-002,-7.26416684707116e+000
7.76247116628690e+002,-1.09535845652301e-002,-7.43320132944133e+000
7.94328234724279e+002,-1.14518110382340e-002,-7.60616126040566e+000
8.12830516164097e+002,-1.19730490549395e-002,-7.78313725881355e+000
8.31763771102669e+002,-1.25183383071373e-002,-7.96422199981846e+000
8.51138038202374e+002,-1.30887632294684e-002,-8.14951025935100e+000
8.70963589956078e+002,-1.36854547073050e-002,-8.33909895944284e+000
8.91250938133743e+002,-1.43095918278423e-002,-8.53308721441026e+000
9.12010839355907e+002,-1.49624036730813e-002,-8.73157637791300e+000
9.33254300796988e+002,-1.56451711530591e-002,-8.93467009090315e+000
9.54992586021433e+002,-1.63592288771773e-002,-9.14247433047915e+000
9.77237220955808e+002,-1.71059670610813e-002,-9.35509745966091e+000
9.99999999999997e+002,-1.78868334660228e-002,-9.57265027810440e+000
1.02329299228075e+003,-1.87033353672113e-002,-9.79524607377520e+000
1.04712854805090e+003,-1.95570415468205e-002,-1.00230006756028e+001
1.07151930523760e+003,-2.04495843069961e-002,-1.02560325071399e+001
1.09647819614318e+003,-2.13826614969472e-002,-1.04944626412457e+001
1.12201845430196e+003,-2.23580385481611e-002,-1.07384148558372e+001
1.14815362149688e+003,-2.33775505100666e-002,-1.09880156907221e+001
1.17489755493953e+003,-2.44431040781377e-002,-1.12433945055649e+001
1.20226443461741e+003,-2.55566796050593e-002,-1.15046835390200e+001
1.23026877081238e+003,-2.67203330845736e-002,-1.17720179690777e+001
1.25892541179416e+003,-2.79361980962151e-002,-1.20455359746817e+001
1.28824955169313e+003,-2.92064876979420e-002,-1.23253787986655e+001
1.31825673855640e+003,-3.05334962521787e-002,-1.26116908120935e+001
1.34896288259165e+003,-3.19196011691256e-002,-1.29046195800635e+001
1.38038426460288e+003,-3.33672645493381e-002,-1.32043159290759e+001
1.41253754462275e+003,-3.48790347062439e-002,-1.35109340160538e+001
1.44543977074592e+003,-3.64575475465404e-002,-1.38246313991450e+001
1.47910838816820e+003,-3.81055277848999e-002,-1.41455691104130e+001
1.51356124843620e+003,-3.98257899667961e-002,-1.44739117305888e+001
1.54881661891248e+003,-4.16212392708630e-002,-1.48098274660291e+001
1.58489319246111e+003,-4.34948720598863e-002,-1.51534882280877e+001
1.62181009735892e+003,-4.54497761461936e-002,-1.55050697151031e+001
1.65958690743755e+003,-4.74891307350742e-002,-1.58647514972604e+001
1.69824365246174e+003,-4.96162060060874e-002,-1.62327171045964e+001
1.73780082874937e+003,-5.18343622895306e-002,-1.66091541184735e+001
1.77827941003892e+003,-5.41470487915104e-002,-1.69942542668668e+001
1.81970085860998e+003,-5.65578018180570e-002,-1.73882135238931e+001
1.86208713666286e+003,-5.90702424447591e-002,-1.77912322140126e+001
1.90546071796324e+003,-6.16880735753235e-002,-1.82035151214497e+001
1.94984459975804e+003,-6.44150763279810e-002,-1.86252716053943e+001
1.99526231496887e+003,-6.72551056861813e-002,-1.90567157216694e+001
2.04173794466952e+003,-7.02120853451104e-002,-1.94980663515872e+001
2.08929613085403e+003,-7.32900016830824e-002,-1.99495473388420e+001
2.13796208950222e+003,-7.64928967831751e-002,-2.04113876353897e+001
2.18776162394954e+003,-7.98248604272735e-002,-2.08838214573649e+001
2.23872113856833e+003,-8.32900209825420e-002,-2.13670884522301e+001
2.29086765276776e+003,-8.68925350978181e-002,-2.18614338784912e+001
2.34422881531991e+003,-9.06365761262606e-002,-2.23671087994777e+001
2.39883291901948e+003,-9.45263211898704e-002,-2.28843702928589e+001
2.45470891568502e+003,-9.85659368023171e-002,-2.34134816777800e+001
2.51188643150957e+003,-1.02759562968274e-001,-2.39547127617070e+001
2.57039578276885e+003,-1.07111295680560e-001,-2.45083401093026e+001
2.63026799189537e+003,-1.11625167743123e-001,-2.50746473359780e+001
2.69153480392690e+003,-1.16305127854414e-001,-2.56539254289860e+001
2.75422870333815e+003,-1.21155017897883e-001,-2.62464730993218e+001
2.81838293126444e+003,-1.26178548399704e-001,-2.68525971679927e+001
2.88403150312659e+003,-1.31379272133214e-001,-2.74726129907091e+001
2.95120922666637e+003,-1.36760555871934e-001,-2.81068449253514e+001
3.01995172040200e+003,-1.42325550323285e-001,-2.87556268472014e+001
3.09029543251358e+003,-1.48077158310106e-001,-2.94193027173362e+001
3.16227766016836e+003,-1.54018001311808e-001,-3.00982272102238e+001
3.23593656929627e+003,-1.60150384529761e-001,-3.07927664071759e+001
3.31131121482590e+003,-1.66476260706290e-001,-3.15032985629796e+001
3.38844156139201e+003,-1.72997193003556e-001,-3.22302149538262e+001
3.46736850452530e+003,-1.79714317341173e-001,-3.29739208154331e+001
3.54813389233574e+003,-1.86628304700762e-001,-3.37348363811472e+001
3.63078054770100e+003,-1.93739324036543e-001,-3.45133980308168e+001
3.71535229097171e+003,-2.01047006584303e-001,-3.53100595621490e+001
3.80189396320559e+003,-2.08550412544081e-001,-3.61252935975197e+001
3.89045144994279e+003,-2.16248001325735e-001,-3.69595931402761e+001
3.98107170553495e+003,-2.24137606798399e-001,-3.78134732958667e+001
4.07380277804111e+003,-2.32216419281947e-001,-3.86874731745144e+001
4.16869383470333e+003,-2.40480976365310e-001,-3.95821579934931e+001
4.26579518801591e+003,-2.48927165043812e-001,-4.04981213985801e+001
4.36515832240164e+003,-2.57550238144299e-001,-4.14359880257185e+001
4.46683592150961e+003,-2.66344848564729e-001,-4.23964163255096e+001
4.57088189614873e+003,-2.75305105505671e-001,-4.33801016745969e+001
4.67735141287196e+003,-2.84424657634048e-001,-4.43877797995560e+001
4.78630092322636e+003,-2.93696809005740e-001,-4.54202305401539e+001
4.89778819368444e+003,-3.03114674611625e-001,-4.64782819800651e+001
5.01187233627270e+003,-3.12671383617753e-001,-4.75628149739322e+001
5.12861383991362e+003,-3.22360339775079e-001,-4.86747681000881e+001
5.24807460249770e+003,-3.32175550107982e-001,-4.98151430680204e+001
5.37031796370250e+003,-3.42112034882739e-001,-5.09850106085000e+001
5.49540873857622e+003,-3.52166334053124e-001,-5.21855168721109e+001
5.62341325190346e+003,-3.62337127907788e-001,-5.34178903578328e+001
5.75439937337154e+003,-3.72625992560576e-001,-5.46834493874986e+001
5.88843655355586e+003,-3.83038314257500e-001,-5.59836101329144e+001
6.02559586074354e+003,-3.93584390274516e-001,-5.73198951900409e+001
6.16595001861479e+003,-4.04280748475327e-001,-5.86939426773219e+001
6.30957344480190e+003,-4.15151722408234e-001,-6.01075158118487e+001
6.45654229034652e+003,-4.26231324141353e-001,-6.15625128858216e+001
6.60693448007592e+003,-4.37565462826782e-001,-6.30609775246343e+001
6.76082975391978e+003,-4.49214563133527e-001,-6.46051090540692e+001
6.91830970918932e+003,-4.61256644031443e-001,-6.61972727349152e+001
7.07945784384134e+003,-4.73790924594987e-001,-6.78400095343688e+001
7.24435960074986e+003,-4.86942029075915e-001,-6.95360449914121e+001
7.41310241300913e+003,-5.00864867696252e-001,-7.12882965925294e+001
7.58577575029179e+003,-5.15750271392111e-001,-7.30998788999565e+001
7.76247116628687e+003,-5.31831456582168e-001,-7.49741054620617e+001
7.94328234724277e+003,-5.49391387867909e-001,-7.69144862801658e+001
8.12830516164094e+003,-5.68771089651598e-001,-7.89247193062800e+001
8.31763771102666e+003,-5.90378928381170e-001,-8.10086741031388e+001
8.51138038202371e+003,-6.14700841013448e-001,-8.31703654198129e+001
8.70963589956075e+003,-6.42311416936712e-001,-8.54139140410412e+001
8.91250938133740e+003,-6.73885643966749e-001,-8.77434918895930e+001
9.12010839355904e+003,-7.10210997887010e-001,-9.01632480520568e+001
9.33254300796985e+003,-7.52199384024833e-001,-9.26772122403986e+001
9.54992586021430e+003,-8.00898225980840e-001,-9.52891723096688e+001
9.77237220955804e+003,-8.57499743437317e-001,-9.80025229746057e+001
9.99999999999993e+003,-9.23347179898243e-001,-1.00820083987763e+002
1.02329299228075e+004,-9.99936457330222e-001,-1.03743887953151e+002
1.04712854805089e+004,-1.08891149134054e+000,-1.06774940827985e+002
1.07151930523760e+004,-1.19205126171462e+000,-1.09912962102365e+002
1.09647819614318e+004,-1.31124678261715e+000,-1.13156116567902e+002
1.12201845430196e+004,-1.44846644891003e+000,-1.16500755145855e+002
1.14815362149688e+004,-1.60570893611617e+000,-1.19941187742226e+002
1.17489755493952e+004,-1.78494394779364e+000,-1.23469515439028e+002
1.20226443461740e+004,-1.98804260437980e+000,-1.27075551131031e+002
1.23026877081237e+004,-2.21670100745821e+000,-1.30746855548428e+002
1.25892541179416e+004,-2.47236222295668e+000,-1.34468908434780e+002
1.28824955169313e+004,-2.75614323840344e+000,-1.38225422347103e+002
1.31825673855640e+004,-3.06877397669928e+000,-1.41998790288667e+002
1.34896288259164e+004,-3.41055490571726e+000,-1.45770640723385e+002
1.38038426460288e+004,-3.78133810143557e+000,-1.49522457924173e+002
1.41253754462274e+004,-4.18053401956934e+000,-1.53236215559850e+002
1.44543977074592e+004,-4.60714318084146e+000,-1.56894969333930e+002
1.47910838816820e+004,-5.05980908407093e+000,-1.60483360870235e+002
1.51356124843620e+004,-5.53688648727753e+000,-1.63987998335951e+002
1.54881661891247e+004,-6.03651809255985e+000,-1.67397696412191e+002
1.58489319246110e+004,-6.55671270256697e+000,-1.70703575553826e+002
1.62181009735892e+004,-7.09541889244309e+000,-1.73899034939644e+002
1.65958690743755e+004,-7.65058980681119e+000,-1.76979623236149e+002
1.69824365246173e+004,-8.22023645777766e+000,-1.79942835812006e+002
1.73780082874936e+004,-8.80246854252158e+000,1.77212132997234e+002
1.77827941003891e+004,-9.39552311212483e+000,1.74484657265314e+002
1.81970085860997e+004,-9.99778232427449e+000,1.71872946277644e+002
1.86208713666285e+004,-1.06077820146367e+001,1.69374296185732e+002
1.90546071796323e+004,-1.12242129968671e+001,1.66985317234298e+002
1.94984459975803e+004,-1.18459169424471e+001,1.64702131720039e+002
1.99526231496887e+004,-1.24718784898302e+001,1.62520541230228e+002
2.04173794466951e+004,-1.31012149616635e+001,1.60436164072079e+002
2.08929613085402e+004,-1.37331647823890e+001,1.58444545283870e+002
2.13796208950222e+004,-1.43670754197279e+001,1.56541242407544e+002
2.18776162394954e+004,-1.50023914401437e+001,1.54721890490968e+002
2.23872113856832e+004,-1.56386430770451e+001,1.52982249743308e+002
2.29086765276776e+004,-1.62754355606085e+001,1.51318239019568e+002
2.34422881531990e+004,-1.69124393455972e+001,1.49725957957732e+002
2.39883291901947e+004,-1.75493812923257e+001,1.48201700200039e+002
2.45470891568501e+004,-1.81860367998157e+001,1.46741959741075e+002
2.51188643150956e+004,-1.88222228533950e+001,1.45343432084307e+002
2.57039578276884e+004,-1.94577919266650e+001,1.44003011568225e+002
2.63026799189536e+004,-2.00926266657274e+001,1.42717785946729e+002
2.69153480392689e+004,-2.07266352788607e+001,1.41485029076562e+002
2.75422870333814e+004,-2.13597475549072e+001,1.40302192372816e+002
2.81838293126443e+004,-2.19919114368404e+001,1.39166895537904e+002
2.88403150312658e+004,-2.26230900819807e+001,1.38076916944561e+002
2.95120922666636e+004,-2.32532593463074e+001,1.37030183954505e+002
3.01995172040199e+004,-2.38824056365650e+001,1.36024763376488e+002
3.09029543251357e+004,-2.45105240801477e+001,1.35058852207478e+002
3.16227766016835e+004,-2.51376169686501e+001,1.34130768753954e+002
3.23593656929626e+004,-2.57636924365110e+001,1.33238944195279e+002
3.31131121482588e+004,-2.63887633411647e+001,1.32381914624382e+002
3.38844156139200e+004,-2.70128463156220e+001,1.31558313581413e+002
3.46736850452529e+004,-2.76359609683716e+001,1.30766865081686e+002
3.54813389233573e+004,-2.82581292089778e+001,1.30006377128790e+002
3.63078054770098e+004,-2.88793746808325e+001,1.29275735697026e+002
3.71535229097169e+004,-2.94997222851282e+001,1.28573899162207e+002
3.80189396320558e+004,-3.01191977824479e+001,1.27899893157337e+002
3.89045144994277e+004,-3.07378274603121e+001,1.27252805827790e+002
3.98107170553494e+004,-3.13556378567406e+001,1.26631783460311e+002
4.07380277804109e+004,-3.19726555313301e+001,1.26036026460063e+002
4.16869383470332e+004,-3.25889068766005e+001,1.25464785650683e+002
4.26579518801589e+004,-3.32044179634292e+001,1.24917358873251e+002
4.36515832240162e+004,-3.38192144152982e+001,1.24393087861202e+002
4.46683592150959e+004,-3.44333213068636e+001,1.23891355369584e+002
4.57088189614871e+004,-3.50467630830168e+001,1.23411582538386e+002
4.67735141287194e+004,-3.56595634951681e+001,1.22953226471063e+002
4.78630092322634e+004,-3.62717455519782e+001,1.22515778010770e+002
4.89778819368442e+004,-3.68833314821568e+001,1.22098759698100e+002
5.01187233627268e+004,-3.74943427073172e+001,1.21701723895445e+002
5.12861383991360e+004,-3.81047998231560e+001,1.21324251064265e+002
5.24807460249768e+004,-3.87147225874967e+001,1.20965948182679e+002
5.37031796370248e+004,-3.93241299139393e+001,1.20626447291868e+002
5.49540873857620e+004,-3.99330398700569e+001,1.20305404160770e+002
5.62341325190344e+004,-4.05414696792195e+001,1.20002497059363e+002
5.75439937337152e+004,-4.11494357252778e+001,1.19717425631826e+002
5.88843655355584e+004,-4.17569535594394e+001,1.19449909861509e+002
6.02559586074352e+004,-4.23640379087702e+001,1.19199689120342e+002
6.16595001861477e+004,-4.29707026858404e+001,1.18966521296094e+002
6.30957344480187e+004,-4.35769609990963e+001,1.18750181991320e+002
6.45654229034650e+004,-4.41828251636044e+001,1.18550463788470e+002
6.60693448007590e+004,-4.47883067118592e+001,1.18367175576128e+002
6.76082975391975e+004,-4.53934164043877e+001,1.18200141931692e+002
6.91830970918930e+004,-4.59981642399267e+001,1.18049202556412e+002
7.07945784384131e+004,-4.66025594649608e+001,1.17914211758812e+002
7.24435960074983e+004,-4.72066105824556e+001,1.17795037983131e+002
7.41310241300911e+004,-4.78103253596169e+001,1.17691563379490e+002
7.58577575029177e+004,-4.84137108345411e+001,1.17603683412938e+002
7.76247116628685e+004,-4.90167733216239e+001,1.17531306508675e+002
7.94328234724274e+004,-4.96195184156069e+001,1.17474353731051e+002
8.12830516164092e+004,-5.02219509941499e+001,1.17432758494058e+002
8.31763771102663e+004,-5.08240752188189e+001,1.17406466301334e+002
8.51138038202369e+004,-5.14258945343857e+001,1.17395434513736e+002
